 Cr Density=7.19
 Energy(eV), Delta, Beta
  30.  0.377660841  0.182799742
  30.4181843  0.366229117  0.173433632
  30.8421955  0.354855955  0.164547473
  31.2721214  0.343539149  0.156116053
  31.7080383  0.332223356  0.148117363
  32.150032  0.320880562  0.140650317
  32.5981827  0.30973354  0.133645907
  33.0525818  0.298751444  0.127014175
  33.5133171  0.28789261  0.120711431
  33.9804764  0.277133346  0.114721023
  34.4541473  0.266460061  0.109025128
  34.9344177  0.255837291  0.103592642
  35.4213829  0.245168373  0.0984178856
  35.9151382  0.234467015  0.0935009718
  36.4157791  0.223665595  0.0888298526
  36.9233932  0.212585166  0.0843921304
  37.4380875  0.201205701  0.0805962831
  37.9599533  0.189780176  0.0778623745
  38.4890938  0.178731829  0.0753755867
  39.0256119  0.167591587  0.0735189319
  39.5696068  0.156383172  0.0718438551
  40.1211853  0.145133063  0.0712267831
  40.6804543  0.134099945  0.0711809322
  41.2475166  0.123011373  0.0713987425
  41.8224831  0.111537851  0.0722346082
  42.405468  0.100181125  0.0743506774
  42.9965744  0.0879355371  0.0765290037
  43.5959282  0.0749504566  0.0831967145
  44.2036324  0.0644854084  0.092274487
  44.8198051  0.0565606467  0.102844194
  45.4445686  0.0512274541  0.114624098
  46.0780411  0.04956837  0.127578095
  46.7203445  0.0529599562  0.140422016
  47.3715973  0.0579115637  0.144272581
  48.0319328  0.0609861799  0.14822872
  48.7014732  0.0638658181  0.15229331
  49.3803444  0.067864567  0.155850664
  50.0686798  0.072164692  0.157898784
  50.7666092  0.0758446008  0.158542886
  51.4742699  0.0791263059  0.159190044
  52.1917915  0.0825427696  0.159840226
  52.9193192  0.0871710628  0.15968208
  53.6569862  0.0910278186  0.157987952
  54.4049339  0.0942773297  0.155985877
  55.163311  0.0972400829  0.154009208
  55.9322586  0.100326009  0.152057543
  56.7119217  0.103840388  0.149746165
  57.5024567  0.107652701  0.14579317
  58.3040123  0.11008931  0.14128536
  59.1167336  0.111901559  0.136916965
  59.9407921  0.113608308  0.132683486
  60.7763329  0.115065053  0.127863199
  61.6235237  0.115976751  0.122628964
  62.4825172  0.116231382  0.117574394
  63.3534927  0.116051912  0.112728275
  64.2366028  0.115606457  0.108081765
  65.1320343  0.115085907  0.103626817
  66.0399323  0.114373043  0.0989311486
  66.960495  0.113270178  0.0942520499
  67.8938904  0.11178802  0.0897528678
  68.8402939  0.110002227  0.0854719877
  69.7998886  0.10794659  0.0814445093
  70.7728577  0.10580276  0.0779004395
  71.7593994  0.103665724  0.0745105073
  72.7596817  0.101470418  0.0712681934
  73.7739182  0.0991526023  0.0681668743
  74.8022842  0.0967684463  0.0653722584
  75.844986  0.0944343358  0.062887907
  76.9022217  0.0922302529  0.0605336539
  77.9741974  0.0900875703  0.0582674593
  79.0611115  0.0879703164  0.05608619
  80.1631851  0.0858503878  0.0539865047
  81.2806168  0.0836538151  0.0520338118
  82.4136276  0.0815216079  0.0502740033
  83.5624237  0.079524532  0.0486536808
  84.7272415  0.0776267499  0.0470855683
  85.9082947  0.0757900253  0.0455680713
  87.1058121  0.0740051344  0.0440994278
  88.320015  0.0722649693  0.042678155
  89.5511475  0.0705674142  0.04129811
  90.7994385  0.0689009652  0.039957203
  92.0651398  0.067259565  0.0386570096
  93.3484802  0.0656411648  0.0373990834
  94.649704  0.0640423298  0.0361821316
  95.9690704  0.0624525249  0.0350048319
  97.3068314  0.060830947  0.0338657349
  98.6632385  0.0592462979  0.0328968503
  100.038544  0.0577385426  0.0319963954
  101.433029  0.0563048236  0.0311227459
  102.846954  0.0549251921  0.0302729663
  104.280579  0.0535839237  0.0294463634
  105.734192  0.0522727333  0.0286423266
  107.208076  0.0509601086  0.0278602801
  108.702492  0.0496886298  0.027193876
  110.217751  0.0484889373  0.0265692733
  111.754128  0.0473582558  0.025961997
  113.311913  0.0462841988  0.0253685899
  114.891418  0.0452582836  0.0247887187
  116.492943  0.0442789495  0.0242221113
  118.116798  0.0433564261  0.0236684754
  119.763275  0.0425313339  0.0230943691
  121.432716  0.0417015851  0.0224626232
  123.125427  0.0408546589  0.0218217354
  124.841721  0.040004503  0.0211991332
  126.581955  0.0391650461  0.0205942765
  128.346436  0.0383403711  0.0200066846
  130.135513  0.0375344157  0.0194358602
  131.949539  0.0367612578  0.0188813191
  133.788834  0.0359985866  0.0183078907
  135.653778  0.0352367163  0.0177409351
  137.544724  0.0344776586  0.0171915069
  139.462021  0.0337267034  0.0166591108
  141.406052  0.0329859443  0.0161431879
  143.377167  0.0322560072  0.0156432427
  145.375778  0.0315364338  0.0151587855
  147.402222  0.0308242235  0.0146936886
  149.45694  0.0301298127  0.014250122
  151.540268  0.0294547714  0.0138233043
  153.652664  0.0287973713  0.0134092653
  155.794495  0.0281567425  0.0130076474
  157.966202  0.027533019  0.0126180341
  160.168167  0.0269275773  0.0122400979
  162.400818  0.0263416525  0.0118734827
  164.664597  0.0257845353  0.0115178619
  166.95993  0.0252549443  0.0111483028
  169.287262  0.0247306246  0.0107585499
  171.647034  0.0241903514  0.0103645651
  174.039703  0.0236447398  0.00998500828
  176.465729  0.0230994783  0.00961930957
  178.925552  0.0225574858  0.00926704891
  181.419678  0.0220203213  0.00892769545
  183.948563  0.0214878414  0.00860073976
  186.512726  0.0209563766  0.00828576181
  189.112595  0.0204259846  0.00798951648
  191.748734  0.0199059118  0.00772464974
  194.4216  0.0194095094  0.00747515028
  197.131729  0.0189300589  0.00723369326
  199.879639  0.0184646435  0.00700003002
  202.665863  0.0180121325  0.00677391933
  205.490906  0.0175718926  0.00655512419
  208.355347  0.0171436481  0.00634339498
  211.259705  0.0167274531  0.00613848865
  214.204544  0.0163236745  0.00594021566
  217.190445  0.0159383826  0.00574365025
  220.217957  0.0155557767  0.00554287992
  223.287674  0.0151770962  0.00534696365
  226.400192  0.0148039935  0.00515797315
  229.556091  0.0144374967  0.00497565418
  232.755981  0.0140780201  0.00479977624
  236.000458  0.0137259206  0.00463012373
  239.290176  0.0133810472  0.00446646381
  242.625763  0.0130435182  0.00430859812
  246.007828  0.0127135115  0.00415630965
  249.437057  0.0123913744  0.00400939351
  252.914062  0.0120767299  0.00386698055
  256.439545  0.0117688403  0.00372858928
  260.01416  0.0114673888  0.0035950921
  263.638641  0.0111725656  0.00346636912
  267.313599  0.0108845346  0.00334226643
  271.039825  0.0106033729  0.00322259637
  274.817963  0.0103293099  0.00310721854
  278.648773  0.0100628678  0.00299597322
  282.53299  0.00980459619  0.00288705342
  286.471375  0.00955386367  0.00277749286
  290.4646  0.00930513348  0.00266844011
  294.513519  0.00905863103  0.00256366446
  298.618896  0.00881661475  0.00246300688
  302.781494  0.00857939851  0.00236629974
  307.002106  0.00834727101  0.00227335282
  311.281525  0.00812011585  0.0021836292
  315.620605  0.00789750461  0.00209666649
  320.020203  0.00767936837  0.0020131655
  324.48111  0.00746562378  0.00193298806
  329.004181  0.00725666294  0.00185601029
  333.590363  0.00705263624  0.0017820939
  338.240417  0.00685385009  0.00171111734
  342.955322  0.00666125584  0.00164165802
  347.735901  0.00647419645  0.00157189788
  352.58316  0.00628812471  0.00150154543
  357.497986  0.00610265648  0.00143433618
  362.481323  0.00591986394  0.00137014245
  367.534119  0.00574002834  0.0013088187
  372.657349  0.00556320045  0.00125024037
  377.85199  0.00538902497  0.00119440956
  383.119019  0.00521757826  0.00114163628
  388.459473  0.00504980143  0.00109229132
  393.87439  0.00488563348  0.00104508363
  399.364807  0.00472432654  0.000999911805
  404.931732  0.00456584711  0.000956694246
  410.576233  0.00440965081  0.000915343233
  416.299469  0.00425566267  0.000876932172
  422.102448  0.00410452904  0.000841788598
  427.986359  0.0039571207  0.000808875135
  433.95224  0.00381310517  0.000777248817
  440.001282  0.00367120537  0.000746860111
  446.134674  0.0035314986  0.000717659481
  452.353577  0.0033936468  0.000689598848
  458.659119  0.00325741735  0.00066263607
  465.052582  0.0031224438  0.000636583136
  471.535156  0.00298820878  0.000611279043
  478.108093  0.00285417167  0.00058691029
  484.772644  0.00271889986  0.000563512207
  491.530151  0.00258230488  0.000541047368
  498.381775  0.00244379719  0.000519356341
  505.328979  0.00230197003  0.000498220907
  512.372986  0.00215522945  0.000477741356
  519.515198  0.00200163154  0.000458104041
  526.756958  0.00183854275  0.000439273252
  534.09967  0.00165928563  0.000421216595
  541.544739  0.0014528801  0.000403051963
  549.093506  0.00120361743  0.000385324471
  556.74762  0.000870397547  0.000368292909
  564.508362  0.00028692506  0.000352013478
  572.377319 -0.00206742878  0.000336453522
  580.355957  0.000135184979  0.002837318
  588.445801  0.000875936821  0.00269094412
  596.648438  0.00122362655  0.00255211256
  604.965332  0.00144394941  0.00242044311
  613.398315  0.00158929138  0.00229556975
  621.948669  0.00168475008  0.00217714277
  630.618347  0.00174110697  0.00206808629
  639.408813  0.00176665816  0.00197379291
  648.321838  0.00178177841  0.00189761096
  657.35907  0.00178818812  0.00182436581
  666.522278  0.00177868095  0.00176123797
  675.813293  0.00177038391  0.00171465916
  685.233704  0.00176635431  0.00167501729
  694.785522  0.00176515151  0.00163629209
  704.470398  0.00176528969  0.0015984677
  714.290344  0.00176695059  0.0015615212
  724.247192  0.00177503948  0.0015254243
  734.342834  0.00178934005  0.00147936132
  744.579163  0.00179475814  0.00142194855
  754.958191  0.00179131562  0.0013628474
  765.481934  0.00178177154  0.00130620145
  776.152344  0.00176840217  0.00125191174
  786.971436  0.00175228086  0.00119987584
  797.941406  0.00173407898  0.00115001004
  809.06427  0.00171441713  0.00110220676
  820.342224  0.00169449649  0.00105639768
  831.777283  0.00167557481  0.00101110933
  843.371826  0.0016551622  0.000964335806
  855.127991  0.0016312825  0.000916861405
  867.047974  0.0016045681  0.000871727418
  879.134155  0.00157607009  0.000828810211
  891.388855  0.00154560735  0.000788012752
  903.814331  0.00151441025  0.000750623643
  916.413025  0.00148337148  0.000715716684
  929.187317  0.00145279604  0.000682637445
  942.139648  0.00142272923  0.000651087495
  955.272583  0.00139308046  0.000620779581
  968.588562  0.00136358361  0.000591016491
  982.09021  0.00133366662  0.000562328729
  995.779968  0.0013032693  0.000535032363
  1009.66058  0.00127285055  0.000509528851
  1023.7348  0.00124296464  0.000485677709
  1038.005  0.00121377991  0.000463088916
  1052.47424  0.00118515443  0.000441443495
  1067.14514  0.00115692557  0.000420710712
  1082.02051  0.00112909125  0.00040094732
  1097.10339  0.00110168627  0.000382113009
  1112.39636  0.00107475312  0.000364162523
  1127.90259  0.00104829937  0.00034705695
  1143.62488  0.00102233107  0.000330756884
  1159.56641  0.00099685532  0.000315221725
  1175.73022  0.000971881265  0.000300413492
  1192.11926  0.000947406224  0.000286299939
  1208.73682  0.000923418032  0.000272850448
  1225.58594  0.000899952371  0.000260032888
  1242.66992  0.00087700563  0.000247791002
  1259.99194  0.000854565238  0.000236090113
  1277.55554  0.000832601683  0.000224900825
  1295.36401  0.000811085571  0.000214205458
  1313.42078  0.000790027494  0.000204021169
  1331.72913  0.000769426464  0.00019432175
  1350.29272  0.00074929191  0.00018508159
  1369.11511  0.000729623949  0.000176279224
  1388.19983  0.000710417808  0.000167896025
  1407.55054  0.000691671798  0.000159913092
  1427.17102  0.000673384639  0.000152310211
  1447.06506  0.00065555179  0.000145065293
  1467.23621  0.000638177851  0.000138147167
  1487.68884  0.000621257757  0.000131531779
  1508.42639  0.000604732079  0.000125144215
  1529.453  0.000588574621  0.000119029188
  1550.77271  0.000572781195  0.000113206457
  1572.38977  0.000557357504  0.000107667947
  1594.30786  0.000542308786  0.000102399979
  1616.53174  0.000527627126  9.73898204E-05
  1639.06531  0.000513311534  9.26249195E-05
  1661.91296  0.000499360089  8.80942389E-05
  1685.0791  0.00048576761  8.37853586E-05
  1708.56824  0.000472535205  7.96869717E-05
  1732.38477  0.000459654955  7.57771777E-05
  1756.53333  0.000447105762  7.20326207E-05
  1781.01831  0.000434868765  6.84637125E-05
  1805.84485  0.000422936486  6.50641741E-05
  1831.01721  0.000411309273  6.18326085E-05
  1856.54065  0.00039998471  5.87613104E-05
  1882.41992  0.00038895593  5.58421198E-05
  1908.65979  0.000378216733  5.306815E-05
  1935.2655  0.00036776223  5.04329546E-05
  1962.24194  0.000357586774  4.79284354E-05
  1989.59473  0.000347677124  4.5546687E-05
  2017.32861  0.000338048412  4.32987799E-05
  2045.44897  0.000328684691  4.11443216E-05
  2073.96143  0.000319568993  3.90882815E-05
  2102.87134  0.000310693664  3.71330716E-05
  2132.18433  0.000302056287  3.52746101E-05
  2161.90576  0.000293652818  3.35088334E-05
  2192.0415  0.000285476446  3.18282473E-05
  2222.59741  0.000277520216  3.02314984E-05
  2253.57935  0.000269780547  2.8714112E-05
  2284.99292  0.000262252463  2.72720827E-05
  2316.84448  0.000254930026  2.59014196E-05
  2349.13989  0.000247807737  2.45987994E-05
  2381.8855  0.000240880661  2.33613246E-05
  2415.08789  0.000234143299  2.21851169E-05
  2448.75293  0.00022759031  2.10677663E-05
  2482.88721  0.00022121855  2.00059876E-05
  2517.49707  0.000215022155  1.89973507E-05
  2552.58984  0.000208996295  1.80391798E-05
  2588.17163  0.000203136951  1.7128943E-05
  2624.24927  0.000197439877  1.62643028E-05
  2660.82983  0.000191900093  1.54430909E-05
  2697.92041  0.000186513644  1.46629309E-05
  2735.52783  0.000181276599  1.39219792E-05
  2773.65967  0.000176184389  1.32182331E-05
  2812.323  0.000171233682  1.25498855E-05
  2851.52539  0.000166420461  1.19151509E-05
  2891.27393  0.00016174074  1.13123233E-05
  2931.57666  0.000157191447  1.07399574E-05
  2972.44141  0.00015276784  1.01965197E-05
  3013.87549  0.00014846772  9.680527E-06
  3055.88745  0.000144287202  9.19048034E-06
  3098.48486  0.000140222968  8.72517467E-06
  3141.67603  0.000136271876  8.28339762E-06
  3185.46924  0.00013243065  7.86395412E-06
  3229.8728  0.000128696076  7.46572459E-06
  3274.89575  0.000125065868  7.08764401E-06
  3320.54614  0.00012153585  6.72877241E-06
  3366.83252  0.000118104239  6.38802294E-06
  3413.7644  0.000114768322  6.06450658E-06
  3461.35059  0.000111524882  5.7573734E-06
  3509.59961  0.00010837138  5.46585761E-06
  3558.52148  0.000105305757  5.18919524E-06
  3608.12549  0.000102324819  4.92652043E-06
  3658.4209  9.942631E-05  4.67722111E-06
  3709.41724  9.6607997E-05  4.44047464E-06
  3761.12451  9.3867704E-05  4.21589448E-06
  3813.55249  9.12032992E-05  4.00268436E-06
  3866.71143  8.86123889E-05  3.8002413E-06
  3920.61133  8.60925866E-05  3.60811555E-06
  3975.26221  8.36422405E-05  3.42570524E-06
  4030.67554  8.12588551E-05  3.25267752E-06
  4086.86084  7.8940393E-05  3.08838571E-06
  4143.82959  7.66850862E-05  2.93246876E-06
  4201.59229  7.44912468E-05  2.78450534E-06
  4260.16016  7.2356961E-05  2.64407686E-06
  4319.54443  7.02803009E-05  2.5107779E-06
  4379.75635  6.82595564E-05  2.38421899E-06
  4440.80811  6.62923558E-05  2.26405291E-06
  4502.71045  6.43769818E-05  2.15004229E-06
  4565.47559  6.25120301E-05  2.04192179E-06
  4629.11572  6.06957074E-05  1.93926303E-06
  4693.64355  5.89261472E-05  1.84177975E-06
  4759.07031  5.72016615E-05  1.74925503E-06
  4825.40918  5.55206025E-05  1.66143764E-06
  4892.67285  5.38807835E-05  1.57805925E-06
  4960.87402  5.22785631E-05  1.49896846E-06
  5030.02588  5.07133482E-05  1.42388092E-06
  5100.14209  4.91826577E-05  1.35262678E-06
  5171.23486  4.76837922E-05  1.28498914E-06
  5243.31885  4.62137541E-05  1.22077608E-06
  5316.4082  4.47690472E-05  1.15982789E-06
  5390.51611  4.33452769E-05  1.10197357E-06
  5465.65723  4.19300304E-05  1.04705884E-06
  5541.84521  4.051629E-05  9.94931838E-07
  5619.09521  3.90889763E-05  9.45440831E-07
  5697.42285  3.76204007E-05  8.98462133E-07
  5776.8418  3.60531667E-05  8.5386705E-07
  5857.36768  3.42234925E-05  8.11529048E-07
  5939.01611  3.09408642E-05  7.71325404E-07
  6021.80273  2.87120401E-05  6.04068009E-06
  6105.74316  3.15634097E-05  5.75974354E-06
  6190.85449  3.17651647E-05  5.4911593E-06
  6277.15186  3.15342186E-05  5.23429253E-06
  6364.65137  3.1130432E-05  4.9886512E-06
  6453.37158  3.06343136E-05  4.75377738E-06
  6543.32812  3.00835309E-05  4.52928771E-06
  6634.53809  2.94974598E-05  4.31472517E-06
  6727.02051  2.88889423E-05  4.10966823E-06
  6820.7915  2.82700857E-05  3.9138904E-06
  6915.86914  2.76461633E-05  3.72692421E-06
  7012.27295  2.7021053E-05  3.5483697E-06
  7110.02002  2.63976326E-05  3.37792903E-06
  7209.12988  2.57781412E-05  3.21532912E-06
  7309.62109  2.51643378E-05  3.06021093E-06
  7411.51318  2.4556477E-05  2.91216884E-06
  7514.82617  2.39570818E-05  2.77089975E-06
  7619.57861  2.33668179E-05  2.6362377E-06
  7725.79102  2.27862856E-05  2.5078416E-06
  7833.48438  2.22159069E-05  2.38542088E-06
  7942.67969  2.1655962E-05  2.26876318E-06
  8053.396  2.11067781E-05  2.15760133E-06
  8165.65625  2.056823E-05  2.05167612E-06
  8279.48047  2.00406248E-05  1.95072766E-06
  8394.89258  1.9524201E-05  1.85460237E-06
  8511.91211  1.90189749E-05  1.76301853E-06
  8630.56348  1.85248773E-05  1.67578423E-06
  8750.86914  1.80418465E-05  1.59274953E-06
  8872.85156  1.75698624E-05  1.51371808E-06
  8996.53418  1.71086922E-05  1.43845193E-06
  9121.94141  1.66581704E-05  1.36681763E-06
  9249.0957  1.6218366E-05  1.29861928E-06
  9378.02344  1.57890681E-05  1.23373513E-06
  9508.74805  1.53701385E-05  1.17203024E-06
  9641.29492  1.4961448E-05  1.11334464E-06
  9775.68848  1.45628346E-05  1.0574995E-06
  9911.95703  1.41740438E-05  1.00434067E-06
  10050.125  1.37948664E-05  9.53799713E-07
  10190.2178  1.34251841E-05  9.05753723E-07
  10332.2637  1.3064875E-05  8.60064006E-07
  10476.29  1.27137146E-05  8.1662472E-07
  10622.3232  1.23714899E-05  7.75333604E-07
  10770.3926  1.20380228E-05  7.36082484E-07
  10920.5264  1.17131585E-05  6.98774841E-07
  11072.7529  1.13966644E-05  6.63309891E-07
  11227.1006  1.10883502E-05  6.29606234E-07
  11383.6006  1.07880496E-05  5.9757906E-07
  11542.2822  1.04956061E-05  5.67149641E-07
  11703.1748  1.02108506E-05  5.38241295E-07
  11866.3105  9.93358208E-06  5.10778079E-07
  12031.7207  9.66361131E-06  4.84689792E-07
  12199.4365  9.40072823E-06  4.59909842E-07
  12369.4902  9.14482098E-06  4.36369248E-07
  12541.9141  8.89572129E-06  4.14015659E-07
  12716.7412  8.65323454E-06  3.92787456E-07
  12894.0059  8.41721976E-06  3.72630581E-07
  13073.7412  8.1875296E-06  3.53491373E-07
  13255.9824  7.96396853E-06  3.35316599E-07
  13440.7637  7.7463892E-06  3.18064167E-07
  13628.1211  7.53467793E-06  3.01681808E-07
  13818.0889  7.32862736E-06  2.86133826E-07
  14010.7061  7.12814654E-06  2.71374205E-07
  14206.0068  6.93307584E-06  2.57365258E-07
  14404.0312  6.74326338E-06  2.44070122E-07
  14604.8164  6.55860094E-06  2.31451466E-07
  14808.3994  6.37892117E-06  2.19479915E-07
  15014.8203  6.20409764E-06  2.08115821E-07
  15224.1182  6.03402941E-06  1.9733227E-07
  15436.335  5.86858641E-06  1.87100284E-07
  15651.5098  5.70763586E-06  1.77392678E-07
  15869.6816  5.55106544E-06  1.68183021E-07
  16090.8965  5.3987651E-06  1.59446657E-07
  16315.1953  5.2505975E-06  1.51159938E-07
  16542.6191  5.10647988E-06  1.4329747E-07
  16773.2148  4.96630128E-06  1.35839869E-07
  17007.0254  4.82994346E-06  1.28766033E-07
  17244.0938  4.69731185E-06  1.22056846E-07
  17484.4668  4.56830867E-06  1.15694647E-07
  17728.1914  4.44283023E-06  1.09661229E-07
  17975.3125  4.32077604E-06  1.0393876E-07
  18225.8789  4.20207425E-06  9.85129702E-08
  18479.9375  4.08663345E-06  9.33673618E-08
  18737.5371  3.97434269E-06  8.8488072E-08
